Wed Oct  9 10:06:47 2024
spot(s):
[1214.91 1228.34 1235.03 1240.01 1244.81 1245.64 1251.98 1253.33 1253.75
 1257.85 1259.82 1260.44 1260.47 1261.75 1263.07 1263.23 1267.3  1273.68
 1274.24 1276.78 1276.84 1279.06 1279.51 1281.9  1283.57 1284.14 1285.13
 1288.77 1293.41 1298.46 1304.46 1308.8  1311.13 1314.51 1314.81 1315.19
 1317.94 1318.45 1320.45 1322.21 1322.24 1325.42 1325.9  1326.38 1326.79
 1328.62 1329.65 1329.75 1330.53 1330.91 1331.14 1331.49 1333.24 1333.44
 1333.8  1334.79 1335.63 1336.97 1337.24 1338.18 1338.73 1339.01 1340.15
 1340.92 1342.48 1342.83 1348.8  1348.82 1348.83 1349.69 1349.91 1350.78
 1351.52 1352.69 1353.69 1353.73 1354.63 1354.95 1358.24 1359.88 1360.
 1360.03 1360.47 1360.48 1362.14 1363.84 1365.56 1365.65 1366.54 1367.41
 1367.69 1369.22 1369.79 1370.68 1371.44 1372.41 1372.91 1374.2  1376.17
 1376.18 1376.5  1377.07 1377.59 1377.99 1379.83 1380.11 1380.72 1380.79
 1381.38 1385.23 1385.42 1385.74 1386.77 1386.98 1387.16 1388.04 1388.3
 1388.63 1390.08 1390.45 1390.84 1391.01 1391.18 1391.82 1392.05 1392.46
 1394.07 1395.   1395.15 1396.31 1397.45 1398.   1398.05 1399.4  1399.96
 1401.2  1401.5  1401.77 1402.74 1403.05 1403.12 1403.51 1403.52 1406.48
 1406.58 1406.64 1406.77 1407.53 1408.06 1409.11 1409.14 1409.82 1410.74
 1411.59 1412.12 1412.71 1413.18 1413.53 1413.8  1414.71 1416.12 1416.34
 1416.4  1416.59 1416.97 1418.28 1418.38 1419.95 1420.46 1420.83 1422.42
 1422.43 1423.07 1423.24 1423.8  1424.27 1424.44 1425.15 1426.09 1426.43
 1426.6  1428.02 1428.35 1428.7  1428.81 1430.36 1430.59 1430.69 1431.78
 1433.18 1433.19 1433.55 1433.65 1434.56 1434.69 1436.11 1437.38 1437.45
 1438.07 1438.45 1438.91 1438.99 1439.15 1439.53 1439.88 1439.97 1443.66
 1444.24 1444.47 1445.28 1445.5  1445.71 1446.04 1446.9  1447.03 1447.04
 1447.54 1447.77 1447.89 1448.38 1448.46 1449.6  1449.93 1451.21 1451.23
 1451.6  1452.52 1452.78 1452.95 1452.96 1453.53 1453.85 1454.4  1454.47
 1454.78 1455.05 1455.51 1456.3  1456.93 1457.51 1457.85 1458.35 1459.18
 1459.53 1460.37 1462.63 1462.85 1463.59 1463.78 1466.35 1466.84 1467.25
 1467.54 1467.95 1468.23 1469.04 1469.89 1470.07 1470.62 1471.33 1471.43
 1471.49 1471.93 1471.99 1472.32 1472.58 1472.83 1473.51 1474.26 1475.44
 1476.23 1476.68 1476.91 1477.65 1477.88 1478.45 1479.09 1480.49 1480.57
 1481.12 1481.25 1482.47 1483.7  1484.16 1484.4  1484.51 1484.68 1484.86
 1486.09 1486.9  1488.85 1489.28 1489.55 1491.66 1492.47 1493.24 1494.22
 1494.32 1495.27 1496.   1496.9  1497.37 1497.42 1497.46 1500.66 1501.4
 1502.13 1502.3  1502.37 1503.06 1503.36 1504.31 1505.36 1505.49 1506.
 1506.03 1506.09 1506.44 1507.3  1507.68 1507.84 1507.94 1508.33 1509.13
 1510.2  1510.29 1511.77 1512.26 1512.52 1512.61 1513.95 1514.24 1515.42
 1515.75 1515.9  1516.16 1516.28 1517.65 1517.78 1517.93 1518.08 1518.59
 1518.8  1519.26 1519.38 1519.66 1520.45 1521.61 1522.16 1522.51 1522.95
 1523.96 1524.76 1524.84 1525.35 1525.39 1525.5  1526.61 1528.78 1529.95
 1530.14 1530.37 1530.69 1531.05 1531.08 1531.44 1531.83 1532.93 1533.31
 1534.08 1535.14 1536.18 1538.87 1539.04 1539.62 1539.7  1540.86 1541.15
 1542.85 1544.83 1546.47 1546.48 1547.66 1548.82 1549.07 1549.66 1549.68
 1552.26 1552.65 1552.8  1554.55 1557.09 1561.58 1562.09 1565.18]

strikes:
[1093.419      1098.37781633 1103.33663265 ... 1717.738      1718.299
 1721.698     ]

maturities:
[ 60  90 180 360 540 720]

types:
['call' 'put']

['DownOut' 'DownIn' 'UpOut' 'UpIn']
number of calls, puts:
1950370,1999138

total prices:
3949508
Deep Neural Network
hidden layers sizes: (13, 13, 13)
learning rate: constant
activation: relu
solver: sgd
alpha: 0.0001
#################
# training data #
#################
         spot_price  strike_price       barrier  days_to_maturity  \
count  3.949508e+06  3.949508e+06  3.949508e+06      3.949508e+06   
mean   1.428452e+03  1.427353e+03  1.428123e+03      3.308469e+02   
min    1.214910e+03  1.093419e+03  6.074550e+02      6.000000e+01   
25%    1.362140e+03  1.343360e+03  1.068747e+03      9.000000e+01   
50%    1.446040e+03  1.425626e+03  1.434149e+03      3.600000e+02   
75%    1.503360e+03  1.514368e+03  1.777231e+03      5.400000e+02   
max    1.565180e+03  1.721698e+03  2.347770e+03      7.200000e+02   
std    8.503262e+01  1.191899e+02  4.500603e+02      2.416140e+02   

       barrier_price     rebate  dividend_rate  risk_free_rate         theta  \
count   3.949508e+06  3949508.0   3.949508e+06    3.949508e+06  3.949508e+06   
mean    5.375481e+01        0.0   2.008771e-02    4.000000e-02  4.819764e-02   
min     2.593117e-08        0.0   1.779800e-02    4.000000e-02  1.992058e-02   
25%     2.215339e+00        0.0   1.865600e-02    4.000000e-02  3.823572e-02   
50%     3.155363e+01        0.0   1.941200e-02    4.000000e-02  5.273680e-02   
75%     9.344279e+01        0.0   2.151300e-02    4.000000e-02  5.672272e-02   
max     2.930981e+02        0.0   2.406300e-02    4.000000e-02  4.050494e-01   
std     5.801250e+01        0.0   1.620130e-03    4.857226e-16  1.480273e-02   

              kappa           rho           eta            v0  \
count  3.949508e+06  3.949508e+06  3.949508e+06  3.949508e+06   
mean   2.157184e+00 -9.600847e-01  2.001097e-01  4.044729e-02   
min    3.970018e-02 -1.000000e+00  8.817807e-02  5.244166e-03   
25%    1.133662e+00 -1.000000e+00  1.537564e-01  2.412887e-02   
50%    1.751180e+00 -9.999999e-01  1.751573e-01  3.975718e-02   
75%    2.340933e+00 -9.999998e-01  2.044992e-01  5.366057e-02   
max    1.232603e+01 -2.766103e-01  1.457690e+00  1.350097e-01   
std    1.734019e+00  1.328084e-01  1.329055e-01  2.014903e-02   

                    calculation_date                expiration_date  \
count                        3949508                        3949508   
mean   2007-11-28 04:51:36.713819136  2008-10-24 01:11:06.504081152   
min              2007-01-03 00:00:00            2007-03-04 00:00:00   
25%              2007-08-03 00:00:00            2008-03-18 00:00:00   
50%              2007-11-27 00:00:00            2008-09-22 00:00:00   
75%              2008-04-01 00:00:00            2009-05-28 00:00:00   
max              2008-07-31 00:00:00            2010-07-21 00:00:00   
std                              NaN                            NaN   

       observed_price  
count    3.949508e+06  
mean     5.376192e+01  
min      0.000000e+00  
25%      2.219528e+00  
50%      3.155290e+01  
75%      9.344858e+01  
max      2.931929e+02  
std      5.800594e+01  
#############
# test data #
#############
          spot_price   strike_price        barrier  days_to_maturity  \
count  555422.000000  555422.000000  555422.000000     555422.000000   
mean     1230.157262    1229.574834    1231.226174        328.257055   
min       969.870000     872.883000     484.935000         60.000000   
25%      1203.300000    1168.818653     925.573100         90.000000   
50%      1253.100000    1236.695571    1244.037200        360.000000   
75%      1279.220000    1306.209245    1559.186900        540.000000   
max      1305.090000    1435.599000    1957.635000        720.000000   
std        77.596616     105.743646     390.172045        241.387495   

       barrier_price    rebate  dividend_rate  risk_free_rate          theta  \
count   5.554220e+05  555422.0  555422.000000    5.554220e+05  555422.000000   
mean    5.438012e+01       0.0       0.023580    4.000000e-02       0.062621   
min     3.889439e-07       0.0       0.022270    4.000000e-02       0.052443   
25%     4.238184e+00       0.0       0.022687    4.000000e-02       0.056563   
50%     3.591964e+01       0.0       0.023060    4.000000e-02       0.061140   
75%     9.476832e+01       0.0       0.024049    4.000000e-02       0.063628   
max     2.483543e+02       0.0       0.029362    4.000000e-02       0.128301   
std     5.537005e+01       0.0       0.001547    2.081670e-17       0.011642   

               kappa            rho            eta             v0  \
count  555422.000000  555422.000000  555422.000000  555422.000000   
mean        4.375036      -0.851063       0.342631       0.082760   
min         1.521139      -1.000000       0.151586       0.026830   
25%         2.065011      -1.000000       0.167388       0.036992   
50%         2.693908      -1.000000       0.178095       0.044849   
75%         7.491997      -0.732820       0.366019       0.118913   
max        11.877831      -0.244331       1.523884       0.299631   
std         3.117008       0.239288       0.297536       0.065642   

                    calculation_date                expiration_date  \
count                         555422                         555422   
mean   2008-09-05 00:54:39.772137472  2009-07-30 07:04:49.323793408   
min              2008-08-01 00:00:00            2008-09-30 00:00:00   
25%              2008-08-19 00:00:00            2008-12-10 00:00:00   
50%              2008-09-04 00:00:00            2009-07-30 00:00:00   
75%              2008-09-22 00:00:00            2010-02-26 00:00:00   
max              2008-10-31 00:00:00            2010-10-21 00:00:00   
std                              NaN                            NaN   

       observed_price  
count   555422.000000  
mean        54.385920  
min          0.000000  
25%          4.237675  
50%         35.920181  
75%         94.772807  
max        248.486435  
std         55.364412  

spot_price                  float64
strike_price                float64
barrier                     float64
days_to_maturity              int64
barrier_price               float64
updown                       object
outin                        object
w                            object
barrier_type_name            object
rebate                      float64
dividend_rate               float64
risk_free_rate              float64
theta                       float64
kappa                       float64
rho                         float64
eta                         float64
v0                          float64
calculation_date     datetime64[ns]
expiration_date      datetime64[ns]
observed_price              float64
dtype: object
in sample results:
     RMSE: 5.197553968286298
     MAE: 3.649530523180922

out of sample results:
     RMSE: 15.13072753345091
     MAE: 7.714810062187539

features:
     spot_price
     strike_price
     days_to_maturity
     risk_free_rate
     dividend_rate
     kappa
     theta
     rho
     eta
     v0
     barrier
     barrier_type_name
     w

target: observed_price

cpu: 152.80470538139343
Wed Oct  9 10:09:20 2024