Wed Oct  9 16:30:03 2024
spot(s):
[1214.91 1228.34 1235.03 1240.01 1244.81 1245.64 1248.97 1251.98 1253.33
 1253.75 1257.85 1259.82 1260.39 1260.44 1260.47 1261.75 1263.07 1263.23
 1266.66 1267.3  1273.68 1274.24 1276.78 1276.84 1279.06 1279.51 1281.9
 1283.57 1284.14 1284.21 1285.13 1288.77 1289.26 1289.99 1293.41 1295.65
 1298.46 1304.46 1305.09 1308.8  1311.13 1314.51 1314.81 1315.19 1317.94
 1318.45 1320.45 1322.21 1322.24 1325.42 1325.9  1326.38 1326.79 1328.62
 1329.65 1329.75 1330.53 1330.91 1331.14 1331.49 1333.24 1333.44 1333.8
 1334.79 1335.63 1336.97 1337.24 1338.18 1338.73 1339.01 1340.15 1340.92
 1342.48 1342.83 1348.8  1348.82 1348.83 1349.69 1349.91 1350.78 1351.52
 1352.69 1353.69 1353.73 1354.63 1354.95 1358.24 1359.88 1360.   1360.03
 1360.47 1360.48 1362.14 1363.84 1365.56 1365.65 1366.54 1367.41 1367.69
 1369.22 1369.79 1370.68 1371.44 1372.41 1372.91 1374.2  1376.17 1376.18
 1376.5  1377.07 1377.59 1377.99 1379.83 1380.11 1380.72 1380.79 1381.38
 1385.23 1385.42 1385.74 1386.77 1386.98 1387.16 1388.04 1388.3  1388.63
 1390.08 1390.45 1390.84 1391.01 1391.18 1391.82 1392.05 1392.46 1394.07
 1395.   1395.15 1396.31 1397.45 1398.   1398.05 1399.4  1399.96 1401.2
 1401.5  1401.77 1402.74 1403.05 1403.12 1403.51 1403.52 1406.48 1406.58
 1406.64 1406.77 1407.53 1408.06 1409.11 1409.14 1409.82 1410.74 1411.59
 1412.12 1412.71 1413.18 1413.53 1413.8  1414.71 1416.12 1416.34 1416.4
 1416.59 1416.97 1418.28 1418.38 1419.95 1420.46 1420.83 1422.42 1422.43
 1423.07 1423.24 1423.8  1424.27 1424.44 1425.15 1426.09 1426.43 1426.6
 1428.02 1428.35 1428.7  1428.81 1430.36 1430.59 1430.69 1431.78 1433.18
 1433.19 1433.55 1433.65 1434.56 1434.69 1436.11 1437.38 1437.45 1438.07
 1438.45 1438.91 1438.99 1439.15 1439.53 1439.88 1439.97 1443.66 1444.24
 1444.47 1445.28 1445.5  1445.71 1446.04 1446.9  1447.03 1447.04 1447.54
 1447.77 1447.89 1448.38 1448.46 1449.6  1449.93 1451.21 1451.23 1451.6
 1452.52 1452.78 1452.95 1452.96 1453.53 1453.85 1454.4  1454.47 1454.78
 1455.05 1455.51 1456.3  1456.93 1457.51 1457.85 1458.35 1459.18 1459.53
 1460.37 1462.63 1462.85 1463.59 1463.78 1466.35 1466.84 1467.25 1467.54
 1467.95 1468.23 1469.04 1469.89 1470.07 1470.62 1471.33 1471.43 1471.49
 1471.93 1471.99 1472.32 1472.58 1472.83 1473.51 1474.26 1475.44 1476.23
 1476.68 1476.91 1477.65 1477.88 1478.45 1479.09 1480.49 1480.57 1481.12
 1481.25 1482.47 1483.7  1484.16 1484.4  1484.51 1484.68 1484.86 1486.09
 1486.9  1488.85 1489.28 1489.55 1491.66 1492.47 1493.24 1494.22 1494.32
 1495.27 1496.   1496.9  1497.37 1497.42 1497.46 1500.66 1501.4  1502.13
 1502.3  1502.37 1503.06 1503.36 1504.31 1505.36 1505.49 1506.   1506.03
 1506.09 1506.44 1507.3  1507.68 1507.84 1507.94 1508.33 1509.13 1510.2
 1510.29 1511.77 1512.26 1512.52 1512.61 1513.95 1514.24 1515.42 1515.75
 1515.9  1516.16 1516.28 1517.65 1517.78 1517.93 1518.08 1518.59 1518.8
 1519.26 1519.38 1519.66 1520.45 1521.61 1522.16 1522.51 1522.95 1523.96
 1524.76 1524.84 1525.35 1525.39 1525.5  1526.61 1528.78 1529.95 1530.14
 1530.37 1530.69 1531.05 1531.08 1531.44 1531.83 1532.93 1533.31 1534.08
 1535.14 1536.18 1538.87 1539.04 1539.62 1539.7  1540.86 1541.15 1542.85
 1544.83 1546.47 1546.48 1547.66 1548.82 1549.07 1549.66 1549.68 1552.26
 1552.65 1552.8  1554.55 1557.09 1561.58 1562.09 1565.18]

strikes:
[1093.419      1098.37781633 1103.33663265 ... 1717.738      1718.299
 1721.698     ]

maturities:
[ 60  90 180 360 540 720]

types:
['call' 'put']

['DownOut' 'UpOut']
number of calls, puts:
1013294,1013294

total prices:
2026588
Deep Neural Network
hidden layers sizes: (13, 13, 13)
learning rate: constant
activation: relu
solver: sgd
alpha: 0.0001
#################
# training data #
#################
         spot_price  strike_price       barrier  days_to_maturity  \
count 2026588.00000 2026588.00000 2026588.00000     2026588.00000   
mean     1425.91592    1425.91592    1425.91921         324.91474   
min      1214.91000    1093.41900     607.45500          60.00000   
25%      1359.88000    1340.56192    1041.54725          90.00000   
50%      1445.28000    1423.72847    1430.50340         180.00000   
75%      1503.06000    1514.65547    1807.16235         540.00000   
max      1565.18000    1721.69800    2347.77000         720.00000   
std        86.90401     121.06792     459.21807         241.51366   

       barrier_price        rebate  dividend_rate  risk_free_rate  \
count  2026588.00000 2026588.00000  2026588.00000   2026588.00000   
mean        65.79462       0.00000        0.02013         0.04000   
min          0.00023       0.00000        0.01780         0.04000   
25%         14.80258       0.00000        0.01866         0.04000   
50%         53.32167       0.00000        0.01946         0.04000   
75%        106.91546       0.00000        0.02163         0.04000   
max        292.97177       0.00000        0.02406         0.04000   
std         56.90294       0.00000        0.00165         0.00000   

              theta         kappa           rho           eta            v0  \
count 2026588.00000 2026588.00000 2026588.00000 2026588.00000 2026588.00000   
mean        0.04822       2.13466      -0.96130       0.19828       0.04014   
min         0.01992       0.03970      -1.00000       0.08818       0.00524   
25%         0.03824       1.13366      -1.00000       0.15360       0.02413   
50%         0.05281       1.75118      -1.00000       0.17385       0.03853   
75%         0.05665       2.27834      -1.00000       0.20080       0.05330   
max         0.40505      12.32603      -0.27661       1.45769       0.13501   
std         0.01488       1.70650       0.13080       0.13061       0.01994   

                    calculation_date                expiration_date  \
count                        2026588                        2026588   
mean   2007-12-02 05:36:58.214258944  2008-10-22 03:34:12.044125952   
min              2007-01-03 00:00:00            2007-03-04 00:00:00   
25%              2007-08-03 00:00:00            2008-03-15 00:00:00   
50%              2007-11-29 00:00:00            2008-09-22 00:00:00   
75%              2008-04-08 00:00:00            2009-05-27 00:00:00   
max              2008-08-12 00:00:00            2010-08-02 00:00:00   
std                              NaN                            NaN   

       observed_price  
count   2026588.00000  
mean         65.79637  
min           0.00000  
25%          14.80634  
50%          53.31467  
75%         106.92030  
max         292.82875  
std          56.90108  
#############
# test data #
#############
        spot_price  strike_price      barrier  days_to_maturity  \
count 349164.00000  349164.00000 349164.00000      349164.00000   
mean    1185.11180    1185.11180   1185.11180         325.00000   
min      871.84000     784.65600    435.92000          60.00000   
25%     1165.72000    1121.97184    863.12160          90.00000   
50%     1231.72000    1209.04488   1195.48440         270.00000   
75%     1267.76000    1285.93902   1477.75500         540.00000   
max     1299.97000    1429.96700   1949.95500         720.00000   
std      119.87078     138.82030    394.60021         241.50604   

       barrier_price       rebate  dividend_rate  risk_free_rate        theta  \
count   349164.00000 349164.00000   349164.00000    349164.00000 349164.00000   
mean        61.68386      0.00000        0.02461         0.04000      0.07137   
min          0.00008      0.00000        0.02231         0.04000      0.05525   
25%         12.33706      0.00000        0.02278         0.04000      0.05880   
50%         50.82869      0.00000        0.02357         0.04000      0.06219   
75%        101.21758      0.00000        0.02438         0.04000      0.06557   
max        248.25468      0.00000        0.03255         0.04000      0.13214   
std         53.51662      0.00000        0.00273         0.00000      0.02387   

             kappa          rho          eta           v0  \
count 349164.00000 349164.00000 349164.00000 349164.00000   
mean       4.87666     -0.81060      0.39620      0.11266   
min        1.52114     -1.00000      0.16478      0.02683   
25%        2.33282     -1.00000      0.17287      0.04064   
50%        3.47328     -0.99975      0.28088      0.06022   
75%        7.89337     -0.63469      0.39647      0.14821   
max       11.87783     -0.24433      1.52388      0.37980   
std        3.10325      0.25606      0.32672      0.08981   

                    calculation_date                expiration_date  \
count                         349164                         349164   
mean   2008-09-18 12:35:24.590163712  2009-08-09 12:35:24.590163712   
min              2008-08-13 00:00:00            2008-10-12 00:00:00   
25%              2008-09-03 00:00:00            2008-12-19 00:00:00   
50%              2008-09-12 00:00:00            2009-06-25 12:00:00   
75%              2008-09-26 00:00:00            2010-03-06 00:00:00   
max              2008-11-14 00:00:00            2010-11-04 00:00:00   
std                              NaN                            NaN   

       observed_price  
count    349164.00000  
mean         61.68618  
min           0.00000  
25%          12.34391  
50%          50.83952  
75%         101.20815  
max         248.45746  
std          53.51435  

spot_price                  float64
strike_price                float64
barrier                     float64
days_to_maturity              int64
barrier_price               float64
updown                       object
outin                        object
w                            object
barrier_type_name            object
rebate                      float64
dividend_rate               float64
risk_free_rate              float64
theta                       float64
kappa                       float64
rho                         float64
eta                         float64
v0                          float64
calculation_date     datetime64[ns]
expiration_date      datetime64[ns]
observed_price              float64
dtype: object
in sample results:
     RMSE: 4.275308721656071
     MAE: 3.062717049613921

out of sample results:
     RMSE: 15.109635871756026
     MAE: 8.376259709507607

features:
     spot_price
     strike_price
     days_to_maturity
     risk_free_rate
     dividend_rate
     kappa
     theta
     rho
     eta
     v0
     barrier
     barrier_type_name
     w

target: observed_price

cpu: 136.97194385528564
Wed Oct  9 16:32:20 2024