Fri Oct 25 15:23:16 2024
spot(s):
[1214.91 1228.34 1235.03 1240.01 1244.81 1245.64 1248.97 1251.98 1253.33
 1253.75 1257.85 1259.82 1260.39 1260.44 1260.47 1261.75 1263.07 1263.23
 1267.3  1273.68 1274.24 1276.78 1276.84 1279.06 1279.51 1281.9  1283.57
 1284.14 1285.13 1288.77 1293.41 1298.46 1304.46 1308.8  1311.13 1314.51
 1314.81 1315.19 1317.94 1318.45 1320.45 1322.21 1322.24 1325.42 1325.9
 1326.38 1326.79 1328.62 1329.65 1329.75 1330.53 1330.91 1331.14 1331.49
 1333.24 1333.44 1333.8  1334.79 1335.63 1336.97 1337.24 1338.18 1338.73
 1339.01 1340.15 1340.92 1342.48 1342.83 1348.8  1348.82 1348.83 1349.69
 1349.91 1350.78 1351.52 1352.69 1353.69 1353.73 1354.63 1354.95 1358.24
 1359.88 1360.   1360.03 1360.47 1360.48 1362.14 1363.84 1365.56 1365.65
 1366.54 1367.41 1367.69 1369.22 1369.79 1370.68 1371.44 1372.41 1372.91
 1374.2  1376.17 1376.18 1376.5  1377.07 1377.59 1377.99 1379.83 1380.11
 1380.72 1380.79 1381.38 1385.23 1385.42 1385.74 1386.77 1386.98 1387.16
 1388.04 1388.3  1388.63 1390.08 1390.45 1390.84 1391.01 1391.18 1391.82
 1392.05 1392.46 1394.07 1395.   1395.15 1396.31 1397.45 1398.   1398.05
 1399.4  1399.96 1401.2  1401.5  1401.77 1402.74 1403.05 1403.12 1403.51
 1403.52 1406.48 1406.58 1406.64 1406.77 1407.53 1408.06 1409.11 1409.14
 1409.82 1410.74 1411.59 1412.12 1412.71 1413.18 1413.53 1413.8  1414.71
 1416.12 1416.34 1416.4  1416.59 1416.97 1418.28 1418.38 1419.95 1420.46
 1420.83 1422.42 1422.43 1423.07 1423.24 1423.8  1424.27 1424.44 1425.15
 1426.09 1426.43 1426.6  1428.02 1428.35 1428.7  1428.81 1430.36 1430.59
 1430.69 1431.78 1433.18 1433.19 1433.55 1433.65 1434.56 1434.69 1436.11
 1437.38 1437.45 1438.07 1438.45 1438.91 1438.99 1439.15 1439.53 1439.88
 1439.97 1443.66 1444.24 1444.47 1445.28 1445.5  1445.71 1446.04 1446.9
 1447.03 1447.04 1447.54 1447.77 1447.89 1448.38 1448.46 1449.6  1449.93
 1451.21 1451.23 1451.6  1452.52 1452.78 1452.95 1452.96 1453.53 1453.85
 1454.4  1454.47 1454.78 1455.05 1455.51 1456.3  1456.93 1457.51 1457.85
 1458.35 1459.18 1459.53 1460.37 1462.63 1462.85 1463.59 1463.78 1466.35
 1466.84 1467.25 1467.54 1467.95 1468.23 1469.04 1469.89 1470.07 1470.62
 1471.33 1471.43 1471.49 1471.93 1471.99 1472.32 1472.58 1472.83 1473.51
 1474.26 1475.44 1476.23 1476.68 1476.91 1477.65 1477.88 1478.45 1479.09
 1480.49 1480.57 1481.12 1481.25 1482.47 1483.7  1484.16 1484.4  1484.51
 1484.68 1484.86 1486.09 1486.9  1488.85 1489.28 1489.55 1491.66 1492.47
 1493.24 1494.22 1494.32 1495.27 1496.   1496.9  1497.37 1497.42 1497.46
 1500.66 1501.4  1502.13 1502.3  1502.37 1503.06 1503.36 1504.31 1505.36
 1505.49 1506.   1506.03 1506.09 1506.44 1507.3  1507.68 1507.84 1507.94
 1508.33 1509.13 1510.2  1510.29 1511.77 1512.26 1512.52 1512.61 1513.95
 1514.24 1515.42 1515.75 1515.9  1516.16 1516.28 1517.65 1517.78 1517.93
 1518.08 1518.59 1518.8  1519.26 1519.38 1519.66 1520.45 1521.61 1522.16
 1522.51 1522.95 1523.96 1524.76 1524.84 1525.35 1525.39 1525.5  1526.61
 1528.78 1529.95 1530.14 1530.37 1530.69 1531.05 1531.08 1531.44 1531.83
 1532.93 1533.31 1534.08 1535.14 1536.18 1538.87 1539.04 1539.62 1539.7
 1540.86 1541.15 1542.85 1544.83 1546.47 1546.48 1547.66 1548.82 1549.07
 1549.66 1549.68 1552.26 1552.65 1552.8  1554.55 1557.09 1561.58 1562.09
 1565.18]

strikes:
[1093.419 1105.506 1111.527 ... 1717.738 1718.299 1721.698]

maturities:
[ 60  90 180 360 540 720]

types:
['call' 'put']

['DownOut' 'DownIn' 'UpOut' 'UpIn']
averaging_type:
number of calls, puts:
432000,432000

total prices:
864000
Deep Neural Network
hidden layers sizes: (13, 13, 13)
learning rate: adaptive
activation: relu
solver: sgd
alpha: 0.0001
#################
# training data #
#################
        spot_price  strike_price      barrier  days_to_maturity       rebate  \
count 864000.00000  864000.00000 864000.00000      864000.00000 864000.00000   
mean    1427.73495    1427.73495   1427.73495         325.00000      0.00000   
min     1214.91000    1093.41900    607.45500          60.00000      0.00000   
25%     1373.87750    1339.93500   1069.63747          90.00000      0.00000   
50%     1437.41500    1425.58738   1431.19630         270.00000      0.00000   
75%     1493.48500    1517.78825   1780.46824         540.00000      0.00000   
max     1565.18000    1721.69800   2347.77000         720.00000      0.00000   
std       79.78558     122.00704    447.99326         241.50583      0.00000   

       dividend_rate  risk_free_rate        theta        kappa          rho  \
count   864000.00000    864000.00000 864000.00000 864000.00000 864000.00000   
mean         0.01989         0.04000      0.04641      2.07754     -0.94833   
min          0.01780         0.04000      0.01992      0.03970     -1.00000   
25%          0.01858         0.04000      0.03273      1.04865     -1.00000   
50%          0.01927         0.04000      0.05145      1.71629     -1.00000   
75%          0.02128         0.04000      0.05637      2.28665     -1.00000   
max          0.02406         0.04000      0.40505     12.32603     -0.27661   
std          0.00161         0.00000      0.02292      1.75761      0.14234   

               eta           v0     calculation_date  barrier_price  \
count 864000.00000 864000.00000               864000   864000.00000   
mean       0.18976      0.03574  2007-10-19 01:44:24       49.58084   
min        0.08818      0.00524  2007-01-03 00:00:00        0.00000   
25%        0.12851      0.01707  2007-05-28 00:00:00        0.43969   
50%        0.16916      0.03344  2007-10-17 12:00:00       23.38859   
75%        0.19866      0.05060  2008-03-12 06:00:00       86.58718   
max        1.45769      0.13501  2008-08-04 00:00:00      293.09806   
std        0.12992      0.02124                  NaN       58.04263   

       observed_price  
count    864000.00000  
mean         49.58160  
min           0.00000  
25%           0.44075  
50%          23.38982  
75%          86.58310  
max         293.09906  
std          58.04193  
#############
# test data #
#############
         spot_price  strike_price       barrier  days_to_maturity  \
count 2362680.00000 2362680.00000 2362680.00000     2362680.00000   
mean     1173.51118    1173.51118    1173.51118         322.74341   
min       676.03000     608.42700     338.01500          60.00000   
25%      1069.52000    1040.60650     842.50395          90.00000   
50%      1193.38000    1190.19225    1152.36960         180.00000   
75%      1320.45000    1317.70700    1462.62720         540.00000   
max      1465.27000    1611.79700    2197.90500         720.00000   
std       180.31182     195.92309     408.02101         241.24743   

             rebate  dividend_rate  risk_free_rate         theta  \
count 2362680.00000  2362680.00000   2362680.00000 2362680.00000   
mean        0.00000        0.02268         0.04000       0.07625   
min         0.00000        0.01791         0.04000       0.03784   
25%         0.00000        0.02052         0.04000       0.05613   
50%         0.00000        0.02187         0.04000       0.06728   
75%         0.00000        0.02306         0.04000       0.07999   
max         0.00000        0.03773         0.04000       0.35610   
std         0.00000        0.00367         0.00000       0.03492   

              kappa           rho           eta            v0  \
count 2362680.00000 2362680.00000 2362680.00000 2362680.00000   
mean        3.35364      -0.86936       0.22328       0.05759   
min         0.08326      -1.00000       0.11096       0.00739   
25%         1.73717      -1.00000       0.16547       0.01945   
50%         2.80148      -0.98702       0.19079       0.03150   
75%         4.57044      -0.79616       0.23728       0.06123   
max        15.99144      -0.18176       1.52882       0.69402   
std         2.19695       0.18668       0.12900       0.06939   

                    calculation_date  barrier_price  observed_price  
count                        2362680  2362680.00000   2362680.00000  
mean   2010-10-27 02:56:50.757275648       48.74184        48.74252  
min              2008-08-05 00:00:00        0.00000         0.00000  
25%              2009-09-28 00:00:00        1.46678         1.46632  
50%              2010-10-27 00:00:00       26.19813        26.19816  
75%              2011-11-28 00:00:00       85.53697        85.53692  
max              2012-12-31 00:00:00      280.85321       280.82826  
std                              NaN       54.10619        54.10561  

spot_price                  float64
strike_price                float64
barrier                     float64
days_to_maturity              int64
updown                       object
outin                        object
w                            object
barrier_type_name            object
rebate                      float64
dividend_rate               float64
risk_free_rate              float64
theta                       float64
kappa                       float64
rho                         float64
eta                         float64
v0                          float64
calculation_date     datetime64[ns]
barrier_price               float64
observed_price              float64
dtype: object
in sample results:
     RMSE: 6.438623407452437
     MAE: 4.228286723824207

out of sample results:
     RMSE: 25.29808410957869
     MAE: 12.493662841802925

features:
     spot_price
     strike_price
     days_to_maturity
     risk_free_rate
     dividend_rate
     kappa
     theta
     rho
     eta
     v0
     barrier
     barrier_type_name
     w

target: observed_price

cpu: 287.31520819664
Fri Oct 25 15:28:03 2024