Mon Oct  7 23:49:08 2024
spot(s):
[1311.13 1325.42 1326.38 1326.79 1330.53 1330.91 1331.14 1331.49 1333.44
 1336.97 1337.24 1338.73 1339.01 1342.48 1348.8  1348.82 1348.83 1349.91
 1351.52 1353.69 1353.73 1354.95 1360.03 1362.14 1366.54 1367.69 1371.44
 1372.91 1374.2  1376.18 1377.99 1379.83 1380.72 1380.79 1381.38 1386.77
 1386.98 1387.16 1390.08 1391.82 1392.05 1395.   1395.15 1399.96 1401.2
 1401.5  1401.77 1402.74 1403.05 1406.48 1406.58 1406.64 1406.77 1409.11
 1409.82 1410.74 1411.59 1412.12 1412.71 1413.18 1414.71 1416.12 1416.34
 1416.4  1416.59 1416.97 1418.28 1419.95 1420.46 1420.83 1422.42 1422.43
 1423.07 1423.8  1424.27 1424.44 1426.09 1426.6  1428.02 1428.35 1428.7
 1428.81 1430.36 1430.59 1430.69 1431.78 1433.18 1433.19 1433.55 1433.65
 1434.56 1434.69 1436.11 1437.38 1437.45 1438.07 1438.45 1438.91 1438.99
 1439.15 1439.53 1439.88 1439.97 1443.66 1444.24 1444.47 1445.28 1445.5
 1445.71 1446.04 1446.9  1447.03 1447.04 1447.54 1447.77 1447.89 1448.38
 1448.46 1449.6  1449.93 1451.21 1451.23 1451.6  1452.52 1452.78 1452.95
 1452.96 1453.53 1453.85 1454.4  1454.47 1454.78 1455.05 1455.51 1456.3
 1456.93 1457.51 1457.85 1458.35 1459.18 1459.53 1460.37 1462.63 1462.85
 1463.59 1463.78 1466.35 1466.84 1467.25 1467.54 1467.95 1468.23 1469.04
 1469.89 1470.07 1470.62 1471.33 1471.43 1471.49 1471.93 1471.99 1472.32
 1472.58 1472.83 1473.51 1474.26 1475.44 1476.23 1476.68 1476.91 1477.65
 1477.88 1478.45 1479.09 1480.49 1480.57 1481.12 1481.25 1482.47 1483.7
 1484.16 1484.4  1484.51 1484.68 1484.86 1486.09 1486.9  1488.85 1489.28
 1489.55 1491.66 1492.47 1493.24 1494.22 1494.32 1495.27 1496.   1496.9
 1497.37 1497.42 1497.46 1500.66 1501.4  1502.13 1502.3  1502.37 1503.06
 1503.36 1504.31 1505.36 1505.49 1506.   1506.03 1506.09 1506.44 1507.3
 1507.68 1507.84 1507.94 1508.33 1509.13 1510.2  1510.29 1511.77 1512.26
 1512.52 1512.61 1513.95 1514.24 1515.42 1515.75 1515.9  1516.16 1516.28
 1517.65 1517.78 1517.93 1518.08 1518.59 1518.8  1519.26 1519.38 1519.66
 1520.45 1521.61 1522.16 1522.51 1522.95 1523.96 1524.76 1524.84 1525.35
 1525.39 1525.5  1526.61 1528.78 1529.95 1530.14 1530.37 1530.69 1531.05
 1531.08 1531.44 1531.83 1532.93 1533.31 1534.08 1535.14 1536.18 1538.87
 1539.04 1539.62 1539.7  1540.86 1541.15 1542.85 1544.83 1546.47 1546.48
 1547.66 1548.82 1549.07 1549.66 1549.68 1552.26 1552.65 1552.8  1554.55
 1557.09 1561.58 1562.09 1565.18]

strikes:
[1180.017      1185.36855102 1190.72010204 ... 1717.738      1718.299
 1721.698     ]

maturities:
[ 60  90 180 360 540 720]

types:
['call' 'put']

['DownOut' 'DownIn' 'UpOut' 'UpIn']
number of calls, puts:
1351930,1389236

total prices:
2741166
Deep Neural Network
hidden layers sizes: (26, 26, 26)
learning rate: adaptive
activation: relu
solver: sgd
alpha: 0.0001
#################
# training data #
#################
         spot_price  strike_price       barrier  days_to_maturity  \
count  2.741166e+06  2.741166e+06  2.741166e+06      2.741166e+06   
mean   1.468701e+03  1.467507e+03  1.467934e+03      3.314016e+02   
min    1.311130e+03  1.180017e+03  6.555650e+02      6.000000e+01   
25%    1.438910e+03  1.390499e+03  1.100849e+03      9.000000e+01   
50%    1.480490e+03  1.465506e+03  1.482396e+03      3.600000e+02   
75%    1.517650e+03  1.548463e+03  1.848088e+03      5.400000e+02   
max    1.565180e+03  1.721698e+03  2.347770e+03      7.200000e+02   
std    6.160069e+01  1.057645e+02  4.578520e+02      2.417232e+02   

       barrier_price     rebate  dividend_rate  risk_free_rate         theta  \
count   2.741166e+06  2741166.0   2.741166e+06    2.741166e+06  2.741166e+06   
mean    5.340679e+01        0.0   1.924397e-02    4.000000e-02  4.446212e-02   
min     2.593117e-08        0.0   1.779800e-02    4.000000e-02  1.992058e-02   
25%     1.911376e+00        0.0   1.851300e-02    4.000000e-02  3.460342e-02   
50%     3.042972e+01        0.0   1.892200e-02    4.000000e-02  4.472080e-02   
75%     9.262131e+01        0.0   1.947500e-02    4.000000e-02  5.517122e-02   
max     2.930981e+02        0.0   2.216600e-02    4.000000e-02  4.050494e-01   
std     5.841620e+01        0.0   1.053865e-03    3.261281e-16  1.623373e-02   

              kappa           rho           eta            v0  \
count  2.741166e+06  2.741166e+06  2.741166e+06  2.741166e+06   
mean   2.167738e+00 -9.481223e-01  2.066521e-01  3.855192e-02   
min    3.970018e-02 -1.000000e+00  8.817807e-02  5.244166e-03   
25%    1.018154e+00 -1.000000e+00  1.301741e-01  1.913510e-02   
50%    1.709255e+00 -9.999999e-01  1.820171e-01  3.649700e-02   
75%    2.512319e+00 -9.999996e-01  2.066094e-01  5.366057e-02   
max    1.232603e+01 -2.766103e-01  1.457690e+00  1.350097e-01   
std    1.969126e+00  1.514390e-01  1.567366e-01  2.145834e-02   

                    calculation_date                expiration_date  \
count                        2741166                        2741166   
mean   2007-09-13 16:51:35.775738624  2008-08-10 02:29:57.537544960   
min              2007-01-03 00:00:00            2007-03-04 00:00:00   
25%              2007-06-26 00:00:00            2008-01-09 00:00:00   
50%              2007-09-14 00:00:00            2008-06-24 00:00:00   
75%              2007-12-06 00:00:00            2009-03-07 00:00:00   
max              2008-03-04 00:00:00            2010-02-22 00:00:00   
std                              NaN                            NaN   

       observed_price  
count    2.741166e+06  
mean     5.341426e+01  
min      0.000000e+00  
25%      1.915237e+00  
50%      3.043434e+01  
75%      9.262021e+01  
max      2.930742e+02  
std      5.840963e+01  
#############
# test data #
#############
          spot_price   strike_price        barrier  days_to_maturity  \
count  381875.000000  381875.000000  381875.000000     381875.000000   
mean     1334.135417    1333.323012    1334.988108        328.238848   
min      1274.240000    1146.816000     637.120000         60.000000   
25%      1314.810000    1265.217551     990.663750         90.000000   
50%      1333.240000    1332.893755    1339.159000        360.000000   
75%      1363.840000    1399.957592    1673.919000        540.000000   
max      1390.450000    1529.495000    2085.675000        720.000000   
std        29.979519      83.550076     414.876671        241.390831   

       barrier_price    rebate  dividend_rate  risk_free_rate          theta  \
count   3.818750e+05  381875.0  381875.000000    3.818750e+05  381875.000000   
mean    5.748856e+01       0.0       0.022166    4.000000e-02       0.059996   
min     5.513854e-07       0.0       0.021272    4.000000e-02       0.055390   
25%     3.777257e+00       0.0       0.021737    4.000000e-02       0.057343   
50%     3.786383e+01       0.0       0.022137    4.000000e-02       0.059447   
75%     1.002410e+02       0.0       0.022467    4.000000e-02       0.062712   
max     2.670748e+02       0.0       0.023081    4.000000e-02       0.066282   
std     5.900791e+01       0.0       0.000433    2.081671e-17       0.003192   

               kappa            rho            eta             v0  \
count  381875.000000  381875.000000  381875.000000  381875.000000   
mean        2.457334      -0.995295       0.201189       0.057205   
min         1.422458      -1.000000       0.152241       0.030735   
25%         1.681420      -1.000000       0.182408       0.045346   
50%         1.806764      -1.000000       0.188753       0.055567   
75%         2.848342      -1.000000       0.213846       0.065462   
max         7.463275      -0.846222       0.361838       0.104066   
std         1.364856       0.026464       0.037857       0.015837   

                    calculation_date                expiration_date  \
count                         381875                         381875   
mean   2008-03-26 20:16:13.298592256  2009-02-18 02:00:09.747691776   
min              2008-03-05 00:00:00            2008-05-04 00:00:00   
25%              2008-03-14 00:00:00            2008-06-26 00:00:00   
50%              2008-03-27 00:00:00            2009-03-01 00:00:00   
75%              2008-04-08 00:00:00            2009-09-19 00:00:00   
max              2008-04-18 00:00:00            2010-04-08 00:00:00   
std                              NaN                            NaN   

       observed_price  
count   381875.000000  
mean        57.494386  
min          0.000000  
25%          3.777201  
50%         37.862327  
75%        100.246116  
max        267.353572  
std         59.002313  

spot_price                  float64
strike_price                float64
barrier                     float64
days_to_maturity              int64
barrier_price               float64
updown                       object
outin                        object
w                            object
barrier_type_name            object
rebate                      float64
dividend_rate               float64
risk_free_rate              float64
theta                       float64
kappa                       float64
rho                         float64
eta                         float64
v0                          float64
calculation_date     datetime64[ns]
expiration_date      datetime64[ns]
observed_price              float64
dtype: object
in sample results:
     RMSE: 3.018709927923197
     MAE: 2.117236433355843

out of sample results:
     RMSE: 2.9699331782898493
     MAE: 2.128404376176307

features:
     spot_price
     strike_price
     days_to_maturity
     risk_free_rate
     dividend_rate
     kappa
     theta
     rho
     eta
     v0
     barrier
     barrier_type_name
     w

target: observed_price

cpu: 692.8201739788055
Tue Oct  8 00:00:41 2024